n    R   sigma N_total   N_success  N_success/N_total   time(s) 
1    1.0    0.0   10000  10000   1.0  0.02600574493408203
2    1.7320508075688776    nan   10000  10000   1.0  0.03200697898864746
3    2.324102583023318    0.3228733243616473   10000  10000   1.0  0.038008928298950195
4    2.7956783671164276    0.6432592538294528   10000  10000   1.0  0.04501056671142578
5    3.189245223735464    0.9878840533587577   10000  10000   1.0  0.052011966705322266
6    3.72770280880861    1.0259784448030074   10685  10000   0.9358914365933552  0.06301355361938477
7    4.145798693744836    1.1932531964941935   11027  10000   0.9068649678062937  0.07202935218811035
8    4.51390172790763    1.4003182462542278   11425  10000   0.87527352297593  0.08303451538085938
9    4.837158942777493    1.6295684589202526   11912  10000   0.8394895903290799  0.09602189064025879
10    5.348829653716994    1.70080020446781   12618  10000   0.7925186241876684  0.11502552032470703
11    5.648737154696777    1.871301300471989   13117  10000   0.7623694442326752  0.1450340747833252
12    6.024083403214565    2.0133353300220076   13869  10000   0.7210325185665873  0.1400318145751953
13    6.345521625684031    2.1802878933701133   14718  10000   0.6794401413235494  0.15703582763671875
14    6.718439327885448    2.287350650320614   15569  10000   0.6423020104052926  0.18804335594177246
15    7.049141774182914    2.4344198995796433   16414  10000   0.6092360180333861  0.1990809440612793
16    7.403111143228198    2.5681209864432946   17493  10000   0.5716572343223003  0.2250516414642334
17    7.664834544328629    2.7002798758770434   18453  10000   0.5419173034194982  0.24905610084533691
18    7.981948461838119    2.798392172759224   19645  10000   0.5090353779587682  0.2800636291503906
19    8.371113944845929    2.9295821071282555   21148  10000   0.47285795347077736  0.3150761127471924
20    8.619515247848256    3.0591921960072117   22283  10000   0.4487726069200736  0.3495936393737793
21    8.95988774811279    3.1746041550433213   24056  10000   0.4156967076820752  0.39308977127075195
22    9.308838866413783    3.2942099142501764   25161  10000   0.39744048328762765  0.438326358795166
23    9.527752716880457    3.3936157952804678   27025  10000   0.3700277520814061  0.47913217544555664
24    9.843113038393978    3.542403945542979   29374  10000   0.34043712126370257  0.5441226959228516
25    10.159488218186118    3.6645325956440153   31188  10000   0.32063614210593816  0.6181991100311279
26    10.442501819278446    3.7144253599132044   33104  10000   0.30207829869502173  0.6611893177032471
27    10.68133097930913    3.9013290697467533   35252  10000   0.2836718484057642  0.7561497688293457
28    11.062275485052512    3.9325514736372136   37560  10000   0.26624068157614483  0.8311936855316162
29    11.392760978231049    4.051122966893985   39765  10000   0.2514774299006664  0.8752498626708984
30    11.652865479492112    4.18970477681436   43583  10000   0.22944726154693343  1.0172538757324219
31    11.859157008464951    4.263120341789171   46147  10000   0.21669881032353133  1.1012537479400635
32    12.176720478699112    4.382474002618801   48936  10000   0.20434853686447604  1.2552955150604248
33    12.446644150967831    4.544441591568568   53413  10000   0.18722033961769607  1.353391408920288
34    12.706959637071048    4.591152010318024   57799  10000   0.1730133739338051  1.5118613243103027
35    13.060025586785665    4.689086443274824   59919  10000   0.1668919708272835  1.6262445449829102
36    13.315815119920735    4.746216144687296   64407  10000   0.15526262673311908  1.8249433040618896
37    13.56518912180195    4.925489223391525   70018  10000   0.1428204176069011  2.066866874694824
38    13.782535416746185    4.98390584643581   76001  10000   0.13157721608926198  2.3325705528259277
39    14.012494142229349    5.125066625321878   80167  10000   0.12473960607232402  2.4375951290130615
40    14.331892126728993    5.213527411245048   86393  10000   0.11575011864387161  2.6803195476531982
41    14.592452453109004    5.293829559378825   91878  10000   0.10883998345632251  2.8947486877441406
42    14.792945202684624    5.325896378110447   99124  10000   0.10088374157620758  3.164179801940918
43    15.189838095655697    5.504390849836785   109014  10000   0.09173133725943457  3.6122665405273438
44    15.422420759890432    5.628182469048122   116644  10000   0.08573094201159083  3.999471426010132
45    15.616979939502599    5.6528167818507455   121457  10000   0.08233366541245049  4.159601926803589
46    15.761235180406022    5.783412970550482   134704  10000   0.07423684523102506  4.746949911117554
47    16.14886345931622    5.872044701154902   142404  10000   0.07022274655206315  5.107208728790283
48    16.35550353358594    5.971608172247897   156922  10000   0.0637259275308752  5.796168088912964
49    16.613957876958132    6.0771213302566895   163883  10000   0.06101914170475278  6.202581167221069
50    16.871061345313706    6.143149768861382   180481  10000   0.055407494417694936  6.989109039306641
51    17.135114777601494    6.246706456879732   189022  10000   0.052903894784734055  7.443676233291626
52    17.441394388994865    6.391350543315428   208058  10000   0.048063520749021905  8.299933910369873
53    17.583473926464432    6.475858605416387   219430  10000   0.04557261996992207  8.887363195419312
54    17.86356126684136    6.512018033283166   233263  10000   0.04287006511962892  9.69993805885315
55    18.036347478017838    6.605707354417056   256338  10000   0.03901099329791135  10.9268958568573
56    18.313052845975008    6.7395026122501545   274599  10000   0.036416738589725384  11.883098125457764
57    18.573889892312582    6.874490109691663   299105  10000   0.03343307534143528  13.335831642150879
58    18.894764345775098    6.8614269884351415   323071  10000   0.030952948423102044  14.565490007400513
59    19.057570752302592    6.891813768593928   345377  10000   0.028953867802430387  15.70998501777649
60    19.268305549721916    7.13603540087601   366774  10000   0.02726474613794871  16.957682847976685
61    19.591842160441853    7.144173903281826   396496  10000   0.025220935394051895  18.709919691085815
62    19.782955401570764    7.284399465945162   432410  10000   0.023126199671607964  20.70687770843506
63    20.037616192882894    7.288884503592937   451990  10000   0.02212438328281599  21.55748152732849
64    20.331302931447862    7.4658637216131645   489809  10000   0.020416121386091314  23.923972129821777
65    20.358214169462443    7.565937868519583   539193  10000   0.018546234836134743  26.506398916244507
66    20.71160142947892    7.710419328830741   576313  10000   0.017351682158826886  28.987910270690918
67    20.93501200415396    7.647893329926191   618152  10000   0.0161772509026906  31.7190899848938
68    21.121419095994003    7.755163142795891   680702  10000   0.014690716348710596  35.32511758804321
69    21.36748839419937    7.842361871512637   716368  10000   0.013959305831639604  37.566556453704834
70    21.567054516151117    7.835180884789181   764330  10000   0.01308335404864391  40.8321475982666
71    21.747595014442087    7.99519299878456   836052  10000   0.011960978503729434  44.83941912651062
72    22.02666749498063    8.103926151290118   900522  10000   0.01110467040227779  48.94231200218201
73    22.3285814184968    8.165699715122974   975358  10000   0.010252645695221652  54.190746545791626
74    22.608444352607762    8.29301778335475   1031622  10000   0.009693472996892272  58.75606679916382
75    22.68439895892921    8.285852030547693   1116907  10000   0.008953296917290339  63.947319984436035
76    22.884268178749757    8.490204351077846   1190915  10000   0.008396904900853545  68.41205430030823
77    23.10808679642349    8.52933904877502   1296962  10000   0.0077103261313747045  75.82314205169678
78    23.360928103755207    8.625232642148278   1411699  10000   0.007083663018816334  85.16528701782227
79    23.680414005792514    8.636173487967099   1520740  10000   0.0065757460183857855  93.18526458740234
80    23.832103167942584    8.829986330257881   1622694  10000   0.006162591345010212  102.56290555000305
81    24.05433713714601    8.89062792453482   1740482  10000   0.005745534857585427  107.81251215934753
82    24.336877930565155    8.939903388335395   1862939  10000   0.005367862286419469  117.57210946083069
83    24.673277777947266    8.955069161779466   2048780  10000   0.004880953543084177  132.80241441726685
84    24.829608720049873    9.144366069292246   2207271  10000   0.004530481304742372  143.8922085762024
85    25.021839901331642    9.195484106458327   2347698  10000   0.004259491638191965  154.83281064033508
86    25.073968149301226    9.30469888001904   2598402  10000   0.00384851920526539  173.42536115646362
87    25.267982458122184    9.353713834409817   2731423  10000   0.003661095333824164  184.53103280067444
88    25.57387030249063    9.376137677710787   2964990  10000   0.003372692656636279  214.57349801063538
89    25.684630989055503    9.549012040836988   3176684  10000   0.0031479366534411355  219.0212275981903
90    25.96939242179427    9.556665592289722   3461006  10000   0.0028893333325628445  241.08207535743713
91    26.266192757489208    9.828678345862253   3728294  10000   0.0026821919086853128  262.13282895088196
92    26.419934338617832    9.6727591484086   3912420  10000   0.0025559628056292523  279.53797817230225
93    26.603910089903053    9.825882552135178   4346125  10000   0.0023009002272138973  314.4636812210083
94    26.899955535982055    9.87166612898696   4705520  10000   0.0021251636376000953  343.2922155857086
95    27.218964294963545    10.04222000901692   5103591  10000   0.001959404662325018  378.59527683258057
96    27.114104112933752    10.056309370389764   5459951  10000   0.0018315182682042384  400.9379448890686
97    27.53331546654995    10.192577663154754   5820153  10000   0.0017181678900881129  432.61954617500305
98    27.81413057308791    10.204500990406952   6425174  10000   0.0015563780840799019  478.9566068649292
99    28.041125052157767    10.215336793725893   6764085  10000   0.0014783965606582413  508.80739402770996
100    28.20645425252104    10.433826647037876   7244043  10000   0.0013804445942686978  550.0401041507721
101    28.273054681204517    10.474057427454722   7946849  10000   0.0012583603891303332  609.1261441707611
102    28.547382675762776    10.52094778827266   8620251  10000   0.0011600590284436033  666.0836024284363
103    28.75200095272105    10.482849861308122   9286131  10000   0.0010768747500977532  723.7175333499908
104    28.80305349291361    10.700117264981591   10099375  10000   0.0009901602821956804  799.7887651920319
105    28.980065535963664    10.883878055695547   10667644  10000   0.0009374141094322233  851.5599684715271
106    29.56094468776237    10.928176845524316   11532475  10000   0.0008671165556396177  931.9676728248596
107    29.643520275804587    10.798064903396458   12581255  10000   0.0007948332658387419  1026.5433900356293
108    29.804266051095624    10.955479229842426   13553071  10000   0.0007378401544565065  1124.6553988456726
109    30.051430189703016    10.937821700567538   14707082  10000   0.0006799445328447886  1229.6267096996307
110    30.085685884301178    10.976575279710923   15861860  10000   0.0006304430880111159  1336.312080860138
111    30.33438018436187    11.235531978086044   16881436  10000   0.0005923666683331915  1432.1791906356812
